wavenumber	intensity
600	0.0278944893617021
602	0.028604170212766
604	0.0268157872340426
606	0.0290275319148936
608	0.0380128723404255
610	0.0528864893617021
612	0.0730295957446808
614	0.0990873191489362
616	0.131297212765957
618	0.17188014893617
620	0.211770510638298
622	0.229776340425532
624	0.220528127659574
626	0.197792127659574
628	0.16870314893617
630	0.132465127659574
632	0.0977386808510638
634	0.0739355744680851
636	0.0610640425531915
638	0.0564328085106383
640	0.0560945319148936
642	0.0581879361702128
644	0.0657984893617021
646	0.0813845957446808
648	0.100867510638298
650	0.11708185106383
652	0.12592414893617
654	0.125141106382979
656	0.112210425531915
658	0.089668170212766
660	0.0665059574468085
662	0.049455085106383
664	0.0378071276595745
666	0.0295302553191489
668	0.0242191276595745
670	0.0205923617021277
672	0.0175565319148936
674	0.0154586382978723
676	0.0144001914893617
678	0.0129006595744681
680	0.0111486595744681
682	0.0112811489361702
684	0.0115987234042553
686	0.00880751063829787
688	0.00485125531914894
690	0.00430055319148936
692	0.00659895744680851
694	0.00813110638297872
696	0.00783404255319149
698	0.0066261914893617
700	0.00567363829787234
702	0.00481044680851064
704	0.00364823404255319
706	0.00322063829787234
708	0.00351257446808511
710	0.00232806382978723
712	0.000541872340425532
714	0.00142308510638298
716	0.004219
718	0.00543387234042553
720	0.00505857446808511
722	0.0047776170212766
724	0.00498976595744681
726	0.00592895744680851
728	0.0061351914893617
730	0.00468027659574468
732	0.00364840425531915
734	0.00420978723404255
736	0.00465808510638298
738	0.0044666170212766
740	0.00480782978723404
742	0.00530942553191489
744	0.00513148936170213
746	0.00470691489361702
748	0.00482912765957447
750	0.00634872340425532
752	0.00851268085106383
754	0.00958408510638298
756	0.0109560638297872
758	0.0142722553191489
760	0.0173000212765957
762	0.0189104255319149
764	0.0227137234042553
766	0.0318875106382979
768	0.0479646382978723
770	0.0750178085106383
772	0.116683574468085
774	0.161496957446809
776	0.186370382978723
778	0.174146276595745
780	0.133456212765957
782	0.0880976382978723
784	0.0549614680851064
786	0.0357953617021277
788	0.025846914893617
790	0.021311170212766
792	0.0190981276595745
794	0.0182726170212766
796	0.0189182340425532
798	0.0211648510638298
800	0.0264711489361702
802	0.0359604042553191
804	0.0467631914893617
806	0.0519887446808511
808	0.048383
810	0.0388454468085106
812	0.0290579574468085
814	0.0226250425531915
816	0.0211940212765957
818	0.0232293617021277
820	0.0262963829787234
822	0.0303077446808511
824	0.0357002340425532
826	0.0422715744680851
828	0.0520291063829787
830	0.0670044042553191
832	0.0881986595744681
834	0.120295787234043
836	0.171152446808511
838	0.248291680851064
840	0.361697553191489
842	0.524755723404255
844	0.730098319148936
846	0.917248553191489
848	0.999785106382979
850	0.928235021276596
852	0.741693021276596
854	0.524688361702128
856	0.350050468085106
858	0.234045255319149
860	0.162355446808511
862	0.116958617021277
864	0.0907883829787234
866	0.0776977446808511
868	0.070155
870	0.0639458510638298
872	0.0597343404255319
874	0.0604800425531915
876	0.0652207234042553
878	0.0717498936170213
880	0.0825896382978723
882	0.101682319148936
884	0.129644787234043
886	0.167713893617021
888	0.224077510638298
890	0.302736787234043
892	0.38523685106383
894	0.43481129787234
896	0.421702765957447
898	0.35478829787234
900	0.267626021276596
902	0.190770765957447
904	0.133489574468085
906	0.0950707021276596
908	0.0706614680851064
910	0.0557730425531915
912	0.0481096595744681
914	0.0475634893617021
916	0.0550873829787234
918	0.0724085744680851
920	0.100557106382979
922	0.131540595744681
924	0.148834255319149
926	0.137723680851064
928	0.104081574468085
930	0.0673574468085106
932	0.041572
934	0.026190829787234
936	0.0167860425531915
938	0.0121631063829787
940	0.0106775106382979
942	0.0097086170212766
944	0.00792087234042553
946	0.00620008510638298
948	0.00549842553191489
950	0.00546978723404255
952	0.0054788085106383
954	0.00505323404255319
956	0.00450170212765957
958	0.00409129787234043
960	0.00341670212765957
962	0.00262940425531915
964	0.00265704255319149
966	0.00366217021276596
968	0.00442251063829787
970	0.00433734042553191
972	0.00399036170212766
974	0.00398968085106383
976	0.00443029787234043
978	0.00535276595744681
980	0.00696748936170213
982	0.00920489361702128
984	0.0119639361702128
986	0.0159477446808511
988	0.022695085106383
990	0.0342255106382979
992	0.0528434680851064
994	0.0796718723404255
996	0.111842914893617
998	0.136869808510638
1000	0.139682872340426
1002	0.115905425531915
1004	0.0788655744680851
1006	0.0461882553191489
1008	0.0260612553191489
1010	0.0161555106382979
1012	0.0113032340425532
1014	0.00849740425531915
1016	0.006391
1018	0.00485168085106383
1020	0.00439648936170213
1022	0.00464234042553192
1024	0.00458051063829787
1026	0.004491
1028	0.00521610638297872
1030	0.00649889361702128
1032	0.00783312765957447
1034	0.0097356170212766
1036	0.012693170212766
1038	0.0170408936170213
1040	0.0233469787234043
1042	0.032643170212766
1044	0.047640914893617
1046	0.0728334042553191
1048	0.107303361702128
1050	0.134845617021277
1052	0.137924042553191
1054	0.114597765957447
1056	0.0803533829787234
1058	0.0505217234042553
1060	0.0333926170212766
1062	0.0266805957446808
1064	0.024348829787234
1066	0.0233461063829787
1068	0.0245953617021277
1070	0.0284453404255319
1072	0.035126829787234
1074	0.0459332553191489
1076	0.0625355106382979
1078	0.0868484680851064
1080	0.121665489361702
1082	0.166040531914894
1084	0.211769872340426
1086	0.246169957446809
1088	0.272988361702128
1090	0.315169361702128
1092	0.395627808510638
1094	0.494678191489362
1096	0.55890729787234
1098	0.548537936170213
1100	0.480910829787234
1102	0.402803361702128
1104	0.338435276595745
1106	0.282181340425532
1108	0.22471014893617
1110	0.168873638297872
1112	0.121184808510638
1114	0.0880347659574468
1116	0.0707002553191489
1118	0.064382085106383
1120	0.063971
1122	0.0694185531914894
1124	0.0857704468085106
1126	0.11812170212766
1128	0.165235446808511
1130	0.215830808510638
1132	0.251644319148936
1134	0.254455340425532
1136	0.222425659574468
1138	0.171781744680851
1140	0.124587893617021
1142	0.0912675744680851
1144	0.0723351914893617
1146	0.0641722765957447
1148	0.0642114255319149
1150	0.0713354255319149
1152	0.0854004255319149
1154	0.105980808510638
1156	0.136795617021277
1158	0.186717
1160	0.252029170212766
1162	0.309035340425532
1164	0.329171340425532
1166	0.306988617021277
1168	0.255010914893617
1170	0.190559617021277
1172	0.128254170212766
1174	0.0798439574468085
1176	0.0493623404255319
1178	0.0314992127659574
1180	0.0208975744680851
1182	0.0158202765957447
1184	0.0148337659574468
1186	0.0148563829787234
1188	0.0140741489361702
1190	0.0147133617021277
1192	0.0192269787234043
1194	0.0283304042553191
1196	0.0420598936170213
1198	0.0622167446808511
1200	0.0883277872340426
1202	0.111136212765957
1204	0.117397638297872
1206	0.101690957446809
1208	0.0732723404255319
1210	0.0458301276595745
1212	0.0275726170212766
1214	0.0176509361702128
1216	0.0124784468085106
1218	0.00929342553191489
1220	0.00711970212765957
1222	0.00588823404255319
1224	0.00564712765957447
1226	0.00565876595744681
1228	0.00496108510638298
1230	0.00367112765957447
1232	0.00287048936170213
1234	0.00354295744680851
1236	0.00519493617021277
1238	0.00605042553191489
1240	0.00615253191489362
1242	0.00680874468085106
1244	0.00840685106382979
1246	0.0110127659574468
1248	0.0154733829787234
1250	0.0220834893617021
1252	0.0309467446808511
1254	0.0438155744680851
1256	0.0613536170212766
1258	0.0797098723404255
1260	0.090812914893617
1262	0.0887573617021277
1264	0.0760769361702128
1266	0.061926085106383
1268	0.0541045531914894
1270	0.0547025319148936
1272	0.0631674255319149
1274	0.0815710638297872
1276	0.115215127659574
1278	0.165738744680851
1280	0.225200106382979
1282	0.276505127659574
1284	0.297998574468085
1286	0.277615638297872
1288	0.224331255319149
1290	0.167726276595745
1292	0.130597425531915
1294	0.117513659574468
1296	0.122868808510638
1298	0.147422085106383
1300	0.190780106382979
1302	0.24239714893617
1304	0.291618276595745
1306	0.329758361702128
1308	0.344916127659574
1310	0.332364510638298
1312	0.303353234042553
1314	0.273338212765957
1316	0.249328212765957
1318	0.239863382978723
1320	0.25689370212766
1322	0.311787680851064
1324	0.40749129787234
1326	0.531660212765957
1328	0.652861106382979
1330	0.716370425531915
1332	0.680575489361702
1334	0.563301553191489
1336	0.423836234042553
1338	0.305651446808511
1340	0.21845385106383
1342	0.160406872340426
1344	0.124660617021277
1346	0.105019744680851
1348	0.0993434468085106
1350	0.110897893617021
1352	0.142812042553191
1354	0.185891404255319
1356	0.215628744680851
1358	0.210817
1360	0.173976723404255
1362	0.127004127659574
1364	0.0892827234042553
1366	0.0640799787234042
1368	0.0481632340425532
1370	0.0387489361702128
1372	0.0332512340425532
1374	0.0294407021276596
1376	0.0278024680851064
1378	0.0285315744680851
1380	0.0294981489361702
1382	0.0303464255319149
1384	0.032205170212766
1386	0.0353154680851064
1388	0.0388717446808511
1390	0.0433845957446808
1392	0.0511631914893617
1394	0.0627953829787234
1396	0.0785710425531915
1398	0.100333446808511
1400	0.128881425531915
1402	0.166175446808511
1404	0.215193574468085
1406	0.271877
1408	0.32944229787234
1410	0.389308680851064
1412	0.45781929787234
1414	0.523890191489362
1416	0.566367553191489
1418	0.570860531914894
1420	0.538056744680851
1422	0.482166446808511
1424	0.424787765957447
1426	0.377664404255319
1428	0.33541414893617
1430	0.290597127659574
1432	0.247744914893617
1434	0.214299659574468
1436	0.193524127659574
1438	0.184644723404255
1440	0.190179978723404
1442	0.219527234042553
1444	0.283465276595745
1446	0.377255787234043
1448	0.454814191489362
1450	0.454758021276596
1452	0.363633255319149
1454	0.238784829787234
1456	0.145461595744681
1458	0.10009129787234
1460	0.0832296170212766
1462	0.0748627872340425
1464	0.0681249361702128
1466	0.0629261063829787
1468	0.0603694042553191
1470	0.0591682127659574
1472	0.0570166808510638
1474	0.0547665957446809
1476	0.0541706382978723
1478	0.0553381914893617
1480	0.058281
1482	0.0637881489361702
1484	0.0726440425531915
1486	0.0852563404255319
1488	0.102529063829787
1490	0.125250106382979
1492	0.152466255319149
1494	0.175882936170213
1496	0.186346468085106
1498	0.182810765957447
1500	0.16677229787234
1502	0.139547914893617
1504	0.107943787234043
1506	0.083178
1508	0.0670490638297872
1510	0.0552213617021277
1512	0.0455003617021277
1514	0.0387296808510638
1516	0.0353798510638298
1518	0.033927914893617
1520	0.0330232978723404
1522	0.0323564255319149
1524	0.0320306382978723
1526	0.0321171276595745
1528	0.0332818085106383
1530	0.0359014255319149
1532	0.0395236595744681
1534	0.0443548936170213
1536	0.0511757021276596
1538	0.0603903404255319
1540	0.0719321276595745
1542	0.0851061914893617
1544	0.0981404893617021
1546	0.108874553191489
1548	0.115508106382979
1550	0.116545829787234
1552	0.111706255319149
1554	0.102888765957447
1556	0.092055829787234
1558	0.0806990212765957
1560	0.0708365106382979
1562	0.0636777872340425
1564	0.0592605106382979
1566	0.0574547446808511
1568	0.0572128510638298
1570	0.0577501489361702
1572	0.0600935531914894
1574	0.0652174042553191
1576	0.0727701276595745
1578	0.082836
1580	0.0956291063829787
1582	0.110219872340426
1584	0.12592270212766
1586	0.142116680851064
1588	0.157514085106383
1590	0.168136808510638
1592	0.172376808510638
1594	0.177924936170213
1596	0.196729787234043
1598	0.232733
1600	0.279966106382979
1602	0.328389234042553
1604	0.357797872340426
1606	0.350607978723404
1608	0.312431404255319
1610	0.268409063829787
1612	0.236964978723404
1614	0.22252329787234
1616	0.228122723404255
1618	0.247493446808511
1620	0.266298787234043
1622	0.274022021276596
1624	0.267131425531915
1626	0.245692021276596
1628	0.216287425531915
1630	0.191283
1632	0.173070531914894
1634	0.158372042553191
1636	0.149218191489362
1638	0.148776234042553
1640	0.156398361702128
1642	0.167941765957447
1644	0.176317021276596
1646	0.173457255319149
1648	0.156969914893617
1650	0.131875659574468
1652	0.105227765957447
1654	0.0822753191489362
1656	0.064169914893617
1658	0.0498711063829787
1660	0.0396487872340426
1662	0.0336416170212766
1664	0.0304021914893617
1666	0.0285955319148936
1668	0.027975829787234
1670	0.0289635106382979
1672	0.0315456595744681
1674	0.036148085106383
1676	0.0446059787234043
1678	0.0590901276595745
1680	0.0787268510638298
1682	0.0993117446808511
1684	0.116144255319149
1686	0.127223638297872
1688	0.132420085106383
1690	0.129716617021277
1692	0.115327680851064
1694	0.0903059574468085
1696	0.0626015319148936
1698	0.0408332765957447
1700	0.0275871276595745
1702	0.0207385106382979
1704	0.0168461914893617
1706	0.0137077234042553
1708	0.0110391276595745
1710	0.00944040425531915
1712	0.00883217021276596
1714	0.00816063829787234
1716	0.0072271914893617
1718	0.00655757446808511
1720	0.00642170212765957
1722	0.00641648936170213
1724	0.00613627659574468
1726	0.00566951063829787
1728	0.00561910638297872
1730	0.00614412765957447
1732	0.00633334042553192
1734	0.00552514893617021
1736	0.00449453191489362
1738	0.0042811914893617
1740	0.00498721276595745
1742	0.00579487234042553
1744	0.00590151063829787
1746	0.00496817021276596
1748	0.00373148936170213
1750	0.00347102127659574
1752	0.00385510638297872
1754	0.00394489361702128
1756	0.00381974468085106
1758	0.00440927659574468
1760	0.00548865957446808
1762	0.00590489361702128
1764	0.00508925531914894
1766	0.00456631914893617
1768	0.00500263829787234
1770	0.00556374468085106
1772	0.00571308510638298
1774	0.00599825531914894
1776	0.00595829787234043
1778	0.00526236170212766
1780	0.00496370212765957
1782	0.00528355319148936
1784	0.00578508510638298
1786	0.00610295744680851
1788	0.00608936170212766
1790	0.00579759574468085
1792	0.00555553191489362
1794	0.00544555319148936
1796	0.00478617021276596
1798	0.00356240425531915
1800	0.00232540425531915
