wavenumber	intensity
600	0.123962704545455
602	0.156820090909091
604	0.188815113636364
606	0.221146159090909
608	0.248025522727273
610	0.255474272727273
612	0.235759181818182
614	0.198358818181818
616	0.161738386363636
618	0.132877795454545
620	0.107462454545455
622	0.0817791363636364
624	0.0597050909090909
626	0.0440381363636364
628	0.0324184545454545
630	0.0225008863636364
632	0.0144946818181818
634	0.00974925
636	0.00770334090909091
638	0.00645084090909091
640	0.00501952272727273
642	0.00353188636363636
644	0.00258915909090909
646	0.00199461363636364
648	0.00110338636363636
650	0.000374818181818182
652	0.000666590909090909
654	0.00158413636363636
656	0.00234386363636364
658	0.00304190909090909
660	0.00344579545454545
662	0.00290406818181818
664	0.00181995454545455
666	0.00143940909090909
668	0.00206815909090909
670	0.00304443181818182
672	0.00369177272727273
674	0.00382840909090909
676	0.00342913636363636
678	0.00284525
680	0.00272402272727273
682	0.00310336363636364
684	0.00342727272727273
686	0.00345447727272727
688	0.0032965
690	0.00321063636363636
692	0.00363665909090909
694	0.00434131818181818
696	0.00456147727272727
698	0.00412293181818182
700	0.00379481818181818
702	0.00400677272727273
704	0.00431065909090909
706	0.00440234090909091
708	0.00448959090909091
710	0.00444604545454545
712	0.0039165
714	0.00332320454545455
716	0.00360370454545455
718	0.00458043181818182
720	0.00503375
722	0.00474465909090909
724	0.00460836363636364
726	0.00501643181818182
728	0.00537170454545455
730	0.00552925
732	0.00598429545454545
734	0.00675918181818182
736	0.00744031818181818
738	0.00786168181818182
740	0.00820084090909091
742	0.00849493181818182
744	0.00868822727272727
746	0.00883831818181818
748	0.00880786363636364
750	0.00846709090909091
752	0.00808477272727273
754	0.00806822727272727
756	0.00839936363636364
758	0.00884997727272727
760	0.00937413636363636
762	0.00988084090909091
764	0.0100053181818182
766	0.00956579545454546
768	0.00909813636363636
770	0.00936995454545455
772	0.0100646136363636
774	0.0103797272727273
776	0.0103315681818182
778	0.0105059090909091
780	0.0109822272727273
782	0.0117207954545455
784	0.0130234545454545
786	0.0150322727272727
788	0.0178337727272727
790	0.0220616363636364
792	0.0285530909090909
794	0.0373472272727273
796	0.0510380681818182
798	0.0763680227272727
800	0.117879045454545
802	0.167633386363636
804	0.206944977272727
806	0.231797886363636
808	0.257749727272727
810	0.300666318181818
812	0.339976568181818
814	0.336457181818182
816	0.274340863636364
818	0.184932227272727
820	0.114038090909091
822	0.07842375
824	0.0667611136363636
826	0.0628595227272727
828	0.0627129772727273
830	0.0657935681818182
832	0.0721967727272727
834	0.0844166363636364
836	0.105621295454545
838	0.136232
840	0.180239795454545
842	0.248221045454545
844	0.350701022727273
846	0.502070409090909
848	0.700943090909091
850	0.885908
852	0.971481181818182
854	0.919795522727273
856	0.759398636363636
858	0.553435386363636
860	0.378994977272727
862	0.267660931818182
864	0.199855363636364
866	0.152055068181818
868	0.121458659090909
870	0.102184227272727
872	0.0879732727272727
874	0.0771851590909091
876	0.0681441590909091
878	0.0601472954545455
880	0.0539141363636364
882	0.0494125227272727
884	0.0463927272727273
886	0.0444840909090909
888	0.0427396136363636
890	0.0412943863636364
892	0.0412111590909091
894	0.0424653636363636
896	0.0441054545454545
898	0.0465990454545455
900	0.0511861363636364
902	0.0578333409090909
904	0.0661837272727273
906	0.0764374090909091
908	0.0865716590909091
910	0.0933611363636364
912	0.0971519772727273
914	0.103764545454545
916	0.116650909090909
918	0.132546090909091
920	0.143458590909091
922	0.142963
924	0.129268840909091
926	0.106517477272727
928	0.0826271590909091
930	0.0650433409090909
932	0.0551471818181818
934	0.0497859772727273
936	0.0456605
938	0.0430930227272727
940	0.0433797954545455
942	0.0456112727272727
944	0.0485074772727273
946	0.0524600681818182
948	0.0582173863636364
950	0.0655833863636364
952	0.0752635
954	0.0893457045454545
956	0.109408613636364
958	0.135985613636364
960	0.168466727272727
962	0.204340068181818
964	0.239057636363636
966	0.267330522727273
968	0.281054318181818
970	0.270737363636364
972	0.236716386363636
974	0.192718181818182
976	0.155187454545455
978	0.128947318181818
980	0.111388886363636
982	0.0992607272727273
984	0.0915011136363636
986	0.0871917272727273
988	0.0863946363636364
990	0.0893151818181818
992	0.0968488636363636
994	0.112519704545455
996	0.137786704545455
998	0.174145568181818
1000	0.229817227272727
1002	0.311170227272727
1004	0.406758545454545
1006	0.488096818181818
1008	0.524816636363636
1010	0.499835363636364
1012	0.421443454545455
1014	0.321714545454545
1016	0.233509590909091
1018	0.170076659090909
1020	0.128095636363636
1022	0.101528977272727
1024	0.0858844545454545
1026	0.0754690454545455
1028	0.0660567272727273
1030	0.0561086136363636
1032	0.0465806363636364
1034	0.0394551363636364
1036	0.0352294545454545
1038	0.0326253409090909
1040	0.0306263636363636
1042	0.0292675
1044	0.0281253409090909
1046	0.0265431363636364
1048	0.0248054318181818
1050	0.0238521136363636
1052	0.0238522045454545
1054	0.0239703409090909
1056	0.0236623409090909
1058	0.0230059090909091
1060	0.0226330681818182
1062	0.0230197272727273
1064	0.0240512272727273
1066	0.0250702045454545
1068	0.0259872727272727
1070	0.0274998409090909
1072	0.0304282045454545
1074	0.0348486590909091
1076	0.0407403636363636
1078	0.0487832045454545
1080	0.0591935909090909
1082	0.0715226136363636
1084	0.0858964318181818
1086	0.101353636363636
1088	0.113846545454545
1090	0.117888636363636
1092	0.112768636363636
1094	0.102100181818182
1096	0.0899136136363636
1098	0.0786922727272727
1100	0.0705279090909091
1102	0.0665987045454546
1104	0.0661575681818182
1106	0.0684266818181818
1108	0.0740255909090909
1110	0.0836681136363636
1112	0.0973947954545454
1114	0.115004477272727
1116	0.135590590909091
1118	0.157422545454545
1120	0.179331704545455
1122	0.2005705
1124	0.219051545454545
1126	0.231605818181818
1128	0.236295204545455
1130	0.232180340909091
1132	0.218690522727273
1134	0.197137454545455
1136	0.171009409090909
1138	0.143922113636364
1140	0.117756931818182
1142	0.0940151818181818
1144	0.0744468636363636
1146	0.0607282272727273
1148	0.0525975681818182
1150	0.0472302272727273
1152	0.0427457045454545
1154	0.0390225227272727
1156	0.0356523409090909
1158	0.0321455909090909
1160	0.0295386590909091
1162	0.0286975681818182
1164	0.0288068181818182
1166	0.0292575909090909
1168	0.0302104545454545
1170	0.0321719090909091
1172	0.0346063409090909
1174	0.0359026363636364
1176	0.0352651818181818
1178	0.0334018863636364
1180	0.0313108863636364
1182	0.0294726136363636
1184	0.0284855909090909
1186	0.0286774545454545
1188	0.0295153181818182
1190	0.0306877272727273
1192	0.0326762727272727
1194	0.0359791818181818
1196	0.0398456818181818
1198	0.0436769090909091
1200	0.0486153181818182
1202	0.0555129318181818
1204	0.06464
1206	0.077499
1208	0.0950070454545455
1210	0.115539545454545
1212	0.136830909090909
1214	0.156848454545455
1216	0.172266431818182
1218	0.180071113636364
1220	0.179755659090909
1222	0.172428727272727
1224	0.160362863636364
1226	0.146353795454545
1228	0.132077931818182
1230	0.1176805
1232	0.102947181818182
1234	0.0888093181818182
1236	0.0768987954545454
1238	0.0678695454545455
1240	0.0618902727272727
1242	0.0591629318181818
1244	0.0589473181818182
1246	0.0590127954545455
1248	0.0573626363636364
1250	0.0534472045454545
1252	0.0479427045454545
1254	0.0424697727272727
1256	0.0387772727272727
1258	0.0369355
1260	0.0358439090909091
1262	0.0348711590909091
1264	0.0344473636363636
1266	0.0347540681818182
1268	0.0355183409090909
1270	0.03675025
1272	0.0382766136363636
1274	0.0396873409090909
1276	0.0414765909090909
1278	0.0445851590909091
1280	0.0490540681818182
1282	0.0540759318181818
1284	0.0607974545454545
1286	0.0717388863636364
1288	0.0885393181818182
1290	0.113746636363636
1292	0.151859159090909
1294	0.20487075
1296	0.259804909090909
1298	0.293942681818182
1300	0.291516340909091
1302	0.262916295454545
1304	0.232410318181818
1306	0.219400431818182
1308	0.228120681818182
1310	0.255167681818182
1312	0.293765795454545
1314	0.336853909090909
1316	0.39216925
1318	0.477475545454545
1320	0.594586227272727
1322	0.713264704545455
1324	0.791319863636364
1326	0.797866090909091
1328	0.727523954545455
1330	0.603145272727273
1332	0.465009590909091
1334	0.347872090909091
1336	0.266072636363636
1338	0.213410681818182
1340	0.1784695
1342	0.1548335
1344	0.140010772727273
1346	0.130123613636364
1348	0.121321477272727
1350	0.1119085
1352	0.1029205
1354	0.0960486818181818
1356	0.0926659545454546
1358	0.0933189772727273
1360	0.0970167045454546
1362	0.102626545454545
1364	0.109688386363636
1366	0.115569590909091
1368	0.115850954545455
1370	0.108991454545455
1372	0.0996809545454545
1374	0.0932035681818182
1376	0.0915777727272727
1378	0.0930867045454545
1380	0.0956945454545454
1382	0.0980451818181818
1384	0.0992798636363636
1386	0.0990254772727273
1388	0.097232
1390	0.0941976363636364
1392	0.0921806590909091
1394	0.0928372954545455
1396	0.0956449318181818
1398	0.101223272727273
1400	0.112530340909091
1402	0.130838545454545
1404	0.154596159090909
1406	0.18438075
1408	0.218475704545455
1410	0.249227136363636
1412	0.271137522727273
1414	0.282570454545455
1416	0.282785
1418	0.276383863636364
1420	0.270283295454545
1422	0.265030318181818
1424	0.257411568181818
1426	0.249131545454545
1428	0.240246977272727
1430	0.226777613636364
1432	0.208583340909091
1434	0.188357886363636
1436	0.168041886363636
1438	0.147708386363636
1440	0.12882825
1442	0.113883227272727
1444	0.104116409090909
1446	0.100789386363636
1448	0.104862090909091
1450	0.115944568181818
1452	0.136840681818182
1454	0.176580386363636
1456	0.245809545454545
1458	0.347353636363636
1460	0.450260659090909
1462	0.498622159090909
1464	0.464377727272727
1466	0.384113227272727
1468	0.313713386363636
1470	0.274804772727273
1472	0.257822022727273
1474	0.248205022727273
1476	0.238814863636364
1478	0.225944
1480	0.208052136363636
1482	0.184845204545455
1484	0.157655022727273
1486	0.130590931818182
1488	0.107765795454545
1490	0.0900983636363636
1492	0.0758579772727273
1494	0.0639048409090909
1496	0.0546771818181818
1498	0.0484963181818182
1500	0.0445817045454545
1502	0.0413833181818182
1504	0.0376491590909091
1506	0.0342013636363636
1508	0.03244275
1510	0.0319885454545455
1512	0.0314542954545455
1514	0.0306598181818182
1516	0.0300858409090909
1518	0.0295485227272727
1520	0.0291628181818182
1522	0.0290117954545455
1524	0.0285705
1526	0.0275882272727273
1528	0.0263747727272727
1530	0.0252638409090909
1532	0.0243859090909091
1534	0.0239356590909091
1536	0.0237478863636364
1538	0.0232407954545455
1540	0.0226331818181818
1542	0.0224759090909091
1544	0.02268275
1546	0.02258575
1548	0.0222906136363636
1550	0.0224507045454545
1552	0.02285725
1554	0.02319375
1556	0.0235923863636364
1558	0.0241111136363636
1560	0.0244265
1562	0.0247436818181818
1564	0.0255877727272727
1566	0.0269587045454545
1568	0.0284392272727273
1570	0.0297781136363636
1572	0.0314079090909091
1574	0.0336398409090909
1576	0.0361497272727273
1578	0.0386720909090909
1580	0.0420727272727273
1582	0.0462606136363636
1584	0.0505623409090909
1586	0.0560984090909091
1588	0.0648639772727273
1590	0.0762577954545455
1592	0.0873101136363636
1594	0.0968318636363636
1596	0.103856545454545
1598	0.106784613636364
1600	0.105225409090909
1602	0.101965840909091
1604	0.100180840909091
1606	0.100881818181818
1608	0.102643022727273
1610	0.103416363636364
1612	0.102518340909091
1614	0.101374090909091
1616	0.102607954545455
1618	0.107508795454545
1620	0.114561909090909
1622	0.121717954545455
1624	0.12755125
1626	0.130091181818182
1628	0.126479
1630	0.115834545454545
1632	0.100566590909091
1634	0.0854177272727273
1636	0.0737541363636364
1638	0.0656549772727273
1640	0.0595284090909091
1642	0.0544631136363636
1644	0.0495410909090909
1646	0.0440302727272727
1648	0.0381316818181818
1650	0.0331698636363636
1652	0.0297036136363636
1654	0.0271108181818182
1656	0.0246285
1658	0.0222781818181818
1660	0.0203204545454545
1662	0.0187629090909091
1664	0.0174344090909091
1666	0.0163493181818182
1668	0.0156538863636364
1670	0.0152800227272727
1672	0.0148357954545455
1674	0.0141794090909091
1676	0.0135390909090909
1678	0.01303375
1680	0.0129170454545455
1682	0.0131881363636364
1684	0.0132388409090909
1686	0.0130894545454545
1688	0.0133066363636364
1690	0.0139096363636364
1692	0.0142336818181818
1694	0.0142757954545455
1696	0.0141743409090909
1698	0.0138085681818182
1700	0.01320075
1702	0.0126201590909091
1704	0.0122802272727273
1706	0.0119799545454545
1708	0.0115838181818182
1710	0.0113013409090909
1712	0.0113308636363636
1714	0.0114035227272727
1716	0.0112131590909091
1718	0.0108340454545455
1720	0.0107176136363636
1722	0.0108955227272727
1724	0.0109379090909091
1726	0.0105621818181818
1728	0.0100499772727273
1730	0.00979143181818182
1732	0.00985009090909091
1734	0.00984295454545455
1736	0.00944311363636364
1738	0.00907863636363636
1740	0.00905552272727273
1742	0.00871543181818182
1744	0.00797436363636364
1746	0.00749454545454545
1748	0.00756997727272727
1750	0.00757129545454545
1752	0.00752904545454545
1754	0.00758447727272727
1756	0.00745340909090909
1758	0.00727172727272727
1760	0.00734468181818182
1762	0.00758029545454545
1764	0.00761688636363636
1766	0.00747143181818182
1768	0.00725952272727273
1770	0.00712875
1772	0.00723777272727273
1774	0.00727709090909091
1776	0.00693881818181818
1778	0.00639938636363636
1780	0.00608831818181818
1782	0.00596954545454545
1784	0.00595965909090909
1786	0.00629190909090909
1788	0.00624038636363636
1790	0.00552256818181818
1792	0.00506188636363636
1794	0.00556045454545455
1796	0.00610429545454545
1798	0.00601831818181818
1800	0.00559861363636364
