wavenumber	intensity
600	0.0763483111111111
602	0.0823707555555555
604	0.0870453111111111
606	0.100213555555556
608	0.114161466666667
610	0.120607155555556
612	0.130055311111111
614	0.146531555555556
616	0.156086711111111
618	0.154543066666667
620	0.149795977777778
622	0.142758822222222
624	0.132930044444444
626	0.127671488888889
628	0.131624688888889
630	0.135018222222222
632	0.125938733333333
634	0.105061688888889
636	0.0810877777777778
638	0.0581110444444444
640	0.039271
642	0.0270884666666667
644	0.0200016666666667
646	0.0147244444444444
648	0.0102858444444444
650	0.006959
652	0.00470884444444444
654	0.00396211111111111
656	0.00581991111111111
658	0.00840122222222222
660	0.00825448888888889
662	0.00544415555555556
664	0.00322848888888889
666	0.00291655555555556
668	0.0038448
670	0.00492993333333333
672	0.00515362222222222
674	0.00574933333333333
676	0.00804448888888889
678	0.0108448444444444
680	0.0134971777777778
682	0.0175448666666667
684	0.0233048222222222
686	0.0312284666666667
688	0.0432912444444444
690	0.0584119111111111
692	0.0741461111111111
694	0.0898941777777778
696	0.100770022222222
698	0.102007688888889
700	0.0977969333333333
702	0.0930103777777778
704	0.0863865333333333
706	0.0794378444444444
708	0.074946
710	0.0693310222222222
712	0.0589914666666667
714	0.0496508
716	0.047703
718	0.0487041555555556
720	0.0448669333333333
722	0.0363554222222222
724	0.0296222888888889
726	0.0259606666666667
728	0.0228263333333333
730	0.0195426
732	0.0169211555555556
734	0.0151742888888889
736	0.0135360444444444
738	0.0117251333333333
740	0.009562
742	0.00725342222222222
744	0.00581937777777778
746	0.0049806
748	0.00362182222222222
750	0.00233826666666667
752	0.00275895555555556
754	0.004669
756	0.0066022
758	0.00776833333333333
760	0.00848055555555556
762	0.0101775111111111
764	0.0129415111111111
766	0.0153266222222222
768	0.0171735333333333
770	0.0211897333333333
772	0.0298289777777778
774	0.0415516444444444
776	0.0556444222222222
778	0.0774622888888889
780	0.119089888888889
782	0.185417844444444
784	0.264403711111111
786	0.331058355555556
788	0.360935666666667
790	0.337788155555556
792	0.267968177777778
794	0.180588444444444
796	0.109505044444444
798	0.0665588666666667
800	0.044166
802	0.0302884
804	0.0200269777777778
806	0.0135914888888889
808	0.0102450222222222
810	0.00847475555555556
812	0.0075648
814	0.00648133333333333
816	0.0043428
818	0.00348393333333333
820	0.00605764444444444
822	0.00950393333333333
824	0.00892655555555556
826	0.00580113333333333
828	0.00510351111111111
830	0.00640815555555556
832	0.00614033333333333
834	0.00488204444444444
836	0.00547337777777778
838	0.00766824444444444
840	0.0110142444444444
842	0.0143651333333333
844	0.0164129333333333
846	0.0197184888888889
848	0.0266610222222222
850	0.0369007111111111
852	0.0528942222222222
854	0.0782747333333333
856	0.114834266666667
858	0.168129533333333
860	0.235775711111111
862	0.295727577777778
864	0.3162
866	0.287231444444444
868	0.223640577777778
870	0.152984866666667
872	0.0962368444444444
874	0.0616243555555556
876	0.0429030222222222
878	0.0304582666666667
880	0.0207526888888889
882	0.0156502444444444
884	0.0143959333333333
886	0.0139165333333333
888	0.0126738666666667
890	0.0109883555555556
892	0.0106101555555556
894	0.0133673333333333
896	0.0195082444444444
898	0.0267956444444444
900	0.0344436222222222
902	0.0434271777777778
904	0.0523903777777778
906	0.0613570222222222
908	0.0759499333333333
910	0.102053
912	0.137020377777778
914	0.170831711111111
916	0.187229244444444
918	0.183359911111111
920	0.178921288888889
922	0.196717311111111
924	0.237317755555556
926	0.282687688888889
928	0.303703577777778
930	0.279727866666667
932	0.218275555555556
934	0.150696177777778
936	0.100949177777778
938	0.0741181555555556
940	0.0649675555555556
942	0.0657585333333333
944	0.0677546666666667
946	0.0655768888888889
948	0.0609730888888889
950	0.0591451333333333
952	0.0611006222222222
954	0.0674673777777778
956	0.0837004444444444
958	0.113137511111111
960	0.155690133333333
962	0.218760177777778
964	0.324013066666667
966	0.488262155555556
968	0.700888044444444
970	0.897448755555556
972	0.988413333333333
974	0.934087288888889
976	0.774211155555556
978	0.580185711111111
980	0.407954044444444
982	0.286287266666667
984	0.215047444444444
986	0.179141977777778
988	0.166726333333333
990	0.171404444444444
992	0.188446133333333
994	0.218424377777778
996	0.264989355555556
998	0.317143755555556
1000	0.350392622222222
1002	0.347073577777778
1004	0.311780311111111
1006	0.263430466666667
1008	0.227319111111111
1010	0.218318666666667
1012	0.240734911111111
1014	0.294373666666667
1016	0.360702244444444
1018	0.405698422222222
1020	0.408512733333333
1022	0.383541266666667
1024	0.355088311111111
1026	0.338675222222222
1028	0.335520288888889
1030	0.3398098
1032	0.344250888888889
1034	0.346398066666667
1036	0.347041511111111
1038	0.344944044444444
1040	0.336379177777778
1042	0.321629777777778
1044	0.305969688888889
1046	0.293837555555556
1048	0.282804911111111
1050	0.263008622222222
1052	0.230449022222222
1054	0.191317777777778
1056	0.154603911111111
1058	0.122905666666667
1060	0.0974161111111111
1062	0.0807117111111111
1064	0.0727720666666667
1066	0.0703778444444444
1068	0.0708689333333333
1070	0.0748636888888889
1072	0.0827904222222222
1074	0.0936363333333333
1076	0.108069622222222
1078	0.128378511111111
1080	0.156026022222222
1082	0.191013577777778
1084	0.236596911111111
1086	0.298020577777778
1088	0.360587044444444
1090	0.394852577777778
1092	0.383076755555556
1094	0.336445022222222
1096	0.277476022222222
1098	0.228855711111111
1100	0.206141688888889
1102	0.2077946
1104	0.2148724
1106	0.211856
1108	0.200993955555556
1110	0.198176088888889
1112	0.213033466666667
1114	0.246605266666667
1116	0.297308
1118	0.369018533333333
1120	0.458994755555556
1122	0.548670266666667
1124	0.614212044444444
1126	0.637636177777778
1128	0.610455666666667
1130	0.5540144
1132	0.502797377777778
1134	0.467859933333333
1136	0.435075155555556
1138	0.396786355555556
1140	0.352645511111111
1142	0.308628755555556
1144	0.279413
1146	0.274644777777778
1148	0.286157911111111
1150	0.293928911111111
1152	0.276931711111111
1154	0.232357355555556
1156	0.176679822222222
1158	0.129282266666667
1160	0.0949972444444444
1162	0.0707228444444444
1164	0.0533183555555556
1166	0.0429133555555556
1168	0.0363728666666667
1170	0.0287268666666667
1172	0.0207069777777778
1174	0.016517
1176	0.0162997777777778
1178	0.0150498666666667
1180	0.011777
1182	0.00905764444444444
1184	0.00829511111111111
1186	0.00823155555555556
1188	0.00831166666666667
1190	0.0101928
1192	0.0135099555555556
1194	0.0166123111111111
1196	0.0202880666666667
1198	0.0274602888888889
1200	0.0382691333333333
1202	0.049368
1204	0.0588811111111111
1206	0.0650295111111111
1208	0.0641900666666667
1210	0.0560658
1212	0.0458398444444444
1214	0.0387867777777778
1216	0.0351703111111111
1218	0.0346345333333333
1220	0.0374794666666667
1222	0.0426980444444444
1224	0.0501759111111111
1226	0.0613073333333333
1228	0.0739492
1230	0.0850403333333333
1232	0.0953858888888889
1234	0.106318088888889
1236	0.117850977777778
1238	0.131893577777778
1240	0.149450866666667
1242	0.172846911111111
1244	0.208145755555556
1246	0.2579318
1248	0.318831022222222
1250	0.387546133333333
1252	0.4583466
1254	0.515733555555556
1256	0.546402666666667
1258	0.548916511111111
1260	0.526982155555556
1262	0.484530311111111
1264	0.429919711111111
1266	0.376942622222222
1268	0.336434555555556
1270	0.315310088888889
1272	0.3181784
1274	0.341574888888889
1276	0.372324244444444
1278	0.3927452
1280	0.392648711111111
1282	0.373624822222222
1284	0.347001688888889
1286	0.326544022222222
1288	0.318776066666667
1290	0.31652
1292	0.309831733333333
1294	0.296636844444444
1296	0.281211266666667
1298	0.264187577777778
1300	0.2458844
1302	0.229797111111111
1304	0.221273644444444
1306	0.225279244444444
1308	0.247411422222222
1310	0.294060022222222
1312	0.365344755555556
1314	0.452188777777778
1316	0.538561333333333
1318	0.603797555555556
1320	0.631462844444444
1322	0.622585244444444
1324	0.596872688888889
1326	0.575613533333333
1328	0.565703933333333
1330	0.547165022222222
1332	0.495508622222222
1334	0.411257533333333
1336	0.325215066666667
1338	0.264568911111111
1340	0.236525488888889
1342	0.229473511111111
1344	0.232086977777778
1346	0.241902133333333
1348	0.259241644444444
1350	0.277754555555556
1352	0.293974888888889
1354	0.315903444444444
1356	0.354033844444444
1358	0.4025658
1360	0.436687155555556
1362	0.440891888888889
1364	0.422958577777778
1366	0.402173355555556
1368	0.389283866666667
1370	0.388019644444444
1372	0.402375933333333
1374	0.443868466666667
1376	0.510524
1378	0.570271511111111
1380	0.573005777777778
1382	0.505821733333333
1384	0.398736266666667
1386	0.295439733333333
1388	0.217747844444444
1390	0.166696888888889
1392	0.131652733333333
1394	0.107240733333333
1396	0.0930782666666667
1398	0.0864807555555556
1400	0.0832777555555556
1402	0.0831684888888889
1404	0.0856368222222222
1406	0.0895864666666667
1408	0.0966997777777778
1410	0.1080868
1412	0.123219066666667
1414	0.142839955555556
1416	0.16709
1418	0.192361577777778
1420	0.211700066666667
1422	0.226873688888889
1424	0.245517955555556
1426	0.267957155555556
1428	0.288629022222222
1430	0.303891577777778
1432	0.310744955555556
1434	0.305991511111111
1436	0.292216622222222
1438	0.274217755555556
1440	0.253084355555556
1442	0.229043777777778
1444	0.203095488888889
1446	0.177842133333333
1448	0.155042666666667
1450	0.134657022222222
1452	0.1166726
1454	0.102939488888889
1456	0.0950406444444444
1458	0.0940052888888889
1460	0.102210866666667
1462	0.123084266666667
1464	0.158445555555556
1466	0.205212822222222
1468	0.251673866666667
1470	0.282833866666667
1472	0.288631511111111
1474	0.262894244444444
1476	0.209244222222222
1478	0.146235466666667
1480	0.0959263333333333
1482	0.0639867555555556
1484	0.0440930222222222
1486	0.0311235777777778
1488	0.0234675333333333
1490	0.0200726666666667
1492	0.0182723333333333
1494	0.0162492444444444
1496	0.0140583777777778
1498	0.0124307333333333
1500	0.0115645555555556
1502	0.0110743777777778
1504	0.0102342
1506	0.00914328888888889
1508	0.0088092
1510	0.00950024444444444
1512	0.0103743777777778
1514	0.0106363555555556
1516	0.0104984666666667
1518	0.0108636
1520	0.0118053777777778
1522	0.0134732888888889
1524	0.0159966
1526	0.0183046
1528	0.0200124222222222
1530	0.0222388
1532	0.0257100222222222
1534	0.0302019333333333
1536	0.0359988888888889
1538	0.0433968666666667
1540	0.052481
1542	0.0609616222222222
1544	0.0664374222222222
1546	0.0700086666666667
1548	0.0731502666666667
1550	0.0747633333333333
1552	0.0741365111111111
1554	0.0724726666666667
1556	0.0698498444444444
1558	0.0665110444444444
1560	0.0631897333333333
1562	0.0593027111111111
1564	0.0551378888888889
1566	0.0523635111111111
1568	0.0514403111111111
1570	0.0512882
1572	0.0509467777777778
1574	0.0502294666666667
1576	0.0498207555555556
1578	0.0507614444444444
1580	0.0530172888888889
1582	0.0555714666666667
1584	0.0576041111111111
1586	0.0588397333333333
1588	0.0603320888888889
1590	0.0641435777777778
1592	0.0701166666666667
1594	0.0759368888888889
1596	0.0816442
1598	0.0877387333333333
1600	0.0939246666666667
1602	0.100895888888889
1604	0.108863311111111
1606	0.1165366
1608	0.124286555555556
1610	0.136110266666667
1612	0.154287
1614	0.180429133333333
1616	0.218869333333333
1618	0.272310911111111
1620	0.340809977777778
1622	0.422829111111111
1624	0.5123738
1626	0.589716977777778
1628	0.633340066666667
1630	0.640569488888889
1632	0.6167196
1634	0.564971111111111
1636	0.492019022222222
1638	0.415856777777778
1640	0.346495933333333
1642	0.284624
1644	0.232254888888889
1646	0.191491066666667
1648	0.161208311111111
1650	0.139091733333333
1652	0.124278088888889
1654	0.113689822222222
1656	0.104711555555556
1658	0.0981622222222222
1660	0.0931157777777778
1662	0.0873165555555556
1664	0.0797959111111111
1666	0.0707177777777778
1668	0.0616447555555556
1670	0.0544140222222222
1672	0.0479318222222222
1674	0.0404366666666667
1676	0.0336035777777778
1678	0.0294768888888889
1680	0.0257935777777778
1682	0.0219219777777778
1684	0.0189389111111111
1686	0.0168206666666667
1688	0.0144906888888889
1690	0.0123850666666667
1692	0.0115673555555556
1694	0.0113216888888889
1696	0.0108547111111111
1698	0.0100398222222222
1700	0.00914546666666667
1702	0.00879362222222222
1704	0.008912
1706	0.00837191111111111
1708	0.00668055555555556
1710	0.0060526
1712	0.00720073333333333
1714	0.0080208
1716	0.00797128888888889
1718	0.00855384444444444
1720	0.00981144444444444
1722	0.00966348888888889
1724	0.00897317777777778
1726	0.00891568888888889
1728	0.00895351111111111
1730	0.00850715555555556
1732	0.0087248
1734	0.00970644444444444
1736	0.00979537777777778
1738	0.0086998
1740	0.00799857777777778
1742	0.00866568888888889
1744	0.00921677777777778
1746	0.00889002222222222
1748	0.00847713333333333
1750	0.00858415555555556
1752	0.00840664444444444
1754	0.0082456
1756	0.00849553333333333
1758	0.00874037777777778
1760	0.00944542222222222
1762	0.0103127333333333
1764	0.0102556444444444
1766	0.00947497777777778
1768	0.00908064444444445
1770	0.00911162222222222
1772	0.00916997777777778
1774	0.00942848888888889
1776	0.00878351111111111
1778	0.00717604444444444
1780	0.0063928
1782	0.00666777777777778
1784	0.00699448888888889
1786	0.00704884444444444
1788	0.00746944444444444
1790	0.007709
1792	0.00764062222222222
1794	0.00787011111111111
1796	0.00821617777777778
1798	0.00790157777777778
1800	0.00620386666666667
